phase,potential_over_EC,probability_level_0,energy_level_0_over_EC,probability_level_1,energy_level_1_over_EC,probability_level_2,energy_level_2_over_EC,probability_level_3,energy_level_3_over_EC
-3.141592653589793,50.0,1.483223570241857e-08,-40.25677954656679,1.829242620516815e-32,-21.31486062224983,4.219073118897983e-05,-3.522164727158292,3.5390968636993345e-32,12.986489952742467
-3.1337386719558187,49.998457882239485,1.4852889811703435e-08,-40.25677954656679,1.2659471045049768e-09,-21.31486062224983,4.222556394919068e-05,-3.522164727158292,5.162492954341448e-07,12.986489952742467
-3.1258846903218442,49.99383162408303,1.4914966475770893e-08,-40.25677954656679,5.069359255239814e-09,-21.31486062224983,4.233017525016357e-05,-3.522164727158292,2.0661760220727752e-06,12.986489952742467
-3.11803070868787,49.98612151090003,1.501880932239637e-08,-40.25677954656679,1.1426972392259065e-08,-21.31486062224983,4.25049044964021e-05,-3.522164727158292,4.653318950273854e-06,12.986489952742467
-3.1101767270538954,49.97532801828658,1.5164993131616054e-08,-40.25677954656679,2.036675793316871e-08,-21.31486062224983,4.275031850786853e-05,-3.522164727158292,8.283583530869602e-06,12.986489952742467
-3.1023227454199205,49.961451812036145,1.5354326947323585e-08,-40.25677954656679,3.192804036527718e-08,-21.31486062224983,4.306721324171899e-05,-3.522164727158292,1.2965253153862162e-05,12.986489952742467
-3.094468763785946,49.944493748098495,1.5587858456015806e-08,-40.25677954656679,4.616166250519317e-08,-21.31486062224983,4.345661620882283e-05,-3.522164727158292,1.8709004927333145e-05,12.986489952742467
-3.0866147821519716,49.924454872526894,1.5866879654911982e-08,-40.25677954656679,6.31301990610836e-08,-21.31486062224983,4.391978959116152e-05,-3.522164727158292,2.5527929993206696e-05,12.986489952742467
-3.078760800517997,49.901336421413575,1.6192933838670687e-08,-40.25677954656679,8.290821931430517e-08,-21.31486062224983,4.4458234067990095e-05,-3.522164727158292,3.343755840129903e-05,12.986489952742467
-3.0709068188840227,49.8751398208135,1.656782394026314e-08,-40.25677954656679,1.055825999286645e-07,-21.31486062224983,4.5073693360370705e-05,-3.522164727158292,4.245588856764061e-05,12.986489952742467
-3.0630528372500483,49.8458666866564,1.6993622268985525e-08,-40.25677954656679,1.3125288908051221e-07,-21.31486062224983,4.576815950552109e-05,-3.522164727158292,5.260342134784536e-05,12.986489952742467
-3.055198855616074,49.81351882464706,1.7472681695218244e-08,-40.25677954656679,1.6003172330200906e-07,-21.31486062224983,4.6543878874178835e-05,-3.522164727158292,6.390319876071366e-05,12.986489952742467
-3.0473448739820994,49.778098230154,1.800764833891615e-08,-40.25677954656679,1.920452986261794e-07,-21.31486062224983,4.740335894605692e-05,-3.522164727158292,7.638084740183582e-05,12.986489952742467
-3.039490892348125,49.73960708808632,1.8601475826901632e-08,-40.25677954656679,2.2743389782520707e-07,-21.31486062224983,4.834937586025821e-05,-3.522164727158292,9.00646265914035e-05,12.986489952742467
-3.0316369107141505,49.69804777275898,1.925744119120452e-08,-40.25677954656679,2.6635247574814516e-07,-21.31486062224983,4.938498275941615e-05,-3.522164727158292,0.00010498548130461384,12.986489952742467
-3.0237829290801757,49.65342284774631,1.997916248944297e-08,-40.25677954656679,3.089713049706611e-07,-21.31486062224983,5.051351894824285e-05,-3.522164727158292,0.000121177099937557,12.986489952742467
-3.015928947446201,49.60573506572389,2.0770618236752934e-08,-40.25677954656679,3.5547668420240084e-07,-21.31486062224983,5.17386198890495e-05,-3.522164727158292,0.00013867597696529853,12.986489952742467
-3.0080749658122268,49.55498736829874,2.163616874736509e-08,-40.25677954656679,4.0607171211931147e-07,-21.31486062224983,5.306422805880927e-05,-3.522164727158292,0.00015752148055312684,12.986489952742467
-3.0002209841782523,49.50118288582787,2.2580579494395397e-08,-40.25677954656679,4.609771295360536e-07,-21.31486062224983,5.449460469428035e-05,-3.522164727158292,0.0001777559251855017,12.986489952742467
-2.992367002544278,49.444324937225225,2.360904660501991e-08,-40.25677954656679,5.20432233070305e-07,-21.31486062224983,5.60343424537929e-05,-3.522164727158292,0.0001994246493813313,12.986489952742467
-2.9845130209103035,49.38441702975688,2.4727224619733276e-08,-40.25677954656679,5.84695863718484e-07,-21.31486062224983,5.768837902633999e-05,-3.522164727158292,0.00022257609856739756,12.986489952742467
-2.976659039276329,49.32146285882477,2.5941256655414013e-08,-40.25677954656679,6.540474740254677e-07,-21.31486062224983,5.946201172070995e-05,-3.522164727158292,0.00024726191318530773,12.986489952742467
-2.9688050576423546,49.25546630773869,2.725780712266232e-08,-40.25677954656679,7.287882778086371e-07,-21.31486062224983,6.136091306961832e-05,-3.522164727158292,0.0002735370221105681,12.986489952742467
-2.96095107600838,49.1864314474768,2.8684097161886755e-08,-40.25677954656679,8.092424866965266e-07,-21.31486062224983,6.339114748589171e-05,-3.522164727158292,0.0003014597414650522,12.986489952742467
-2.9530970943744057,49.114362536434435,3.0227942973987e-08,-40.25677954656679,8.957586380330311e-07,-21.31486062224983,6.555918901013746e-05,-3.522164727158292,0.0003310918789073462,12.986489952742467
-2.945243112740431,49.039264020161525,3.189779723666269e-08,-40.25677954656679,9.887110190267163e-07,-21.31486062224983,6.787194019152045e-05,-3.522164727158292,0.0003624988434875833,12.986489952742467
-2.9373891311064564,48.96114053108829,3.37027938120501e-08,-40.25677954656679,1.0885011923570154e-06,-21.31486062224983,7.033675214565098e-05,-3.522164727158292,0.00039574976115558234,12.986489952742467
-2.929535149472482,48.87999688823953,3.565279596598534e-08,-40.25677954656679,1.1955596287889076e-06,-21.31486062224983,7.296144583602121e-05,-3.522164727158292,0.00043091759601341837,12.986489952742467
-2.9216811678385075,48.795838096937366,3.775844833737738e-08,-40.25677954656679,1.3103474527180092e-06,-21.31486062224983,7.575433462784471e-05,-3.522164727158292,0.00046807927740486773,12.986489952742467
-2.913827186204533,48.708669348492464,4.0031232912910323e-08,-40.25677954656679,1.4333583069503926e-06,-21.31486062224983,7.872424816566124e-05,-3.522164727158292,0.00050731583293552,12.986489952742467
-2.9059732045705586,48.61849601988383,4.2483529281046714e-08,-40.25677954656679,1.5651203434170981e-06,-21.31486062224983,8.188055762867038e-05,-3.522164727158292,0.0005487125275184804,12.986489952742467
-2.898119222936584,48.525323673427124,4.512867946013903e-08,-40.25677954656679,1.7061983469395165e-06,-21.31486062224983,8.523320242034817e-05,-3.522164727158292,0.0005923590085411376,12.986489952742467
-2.8902652413026098,48.429158056431554,4.79810576162113e-08,-40.25677954656679,1.8571959996181583e-06,-21.31486062224983,8.879271835156558e-05,-3.522164727158292,0.0006383494572482697,12.986489952742467
-2.8824112596686353,48.33000510084536,5.10561450082229e-08,-40.25677954656679,2.0187582938458677e-06,-21.31486062224983,9.257026737923613e-05,-3.522164727158292,0.0006867827464373499,12.986489952742467
-2.8745572780346604,48.2278709228899,5.437061052381845e-08,-40.25677954656679,2.1915741024607493e-06,-21.31486062224983,9.657766896527729e-05,-3.522164727158292,0.0007377626045604532,12.986489952742467
-2.8667032964006864,48.122761822682364,5.794239719344197e-08,-40.25677954656679,2.3763789150462265e-06,-21.31486062224983,0.00010082743312343187,-3.522164727158292,0.0007913977863261301,12.986489952742467
-2.8588493147667116,48.014684283847146,6.179081509814218e-08,-40.25677954656679,2.573957749911175e-06,-21.31486062224983,0.00010533279522463034,-3.522164727158292,0.0008478022498934611,12.986489952742467
-2.850995333132737,47.90364497311595,6.593664111542622e-08,-40.25677954656679,2.7851482518477936e-06,-21.31486062224983,0.00011010775263434762,-3.522164727158292,0.0009070953407476211,12.986489952742467
-2.8431413514987627,47.7896507399165,7.040222597924134e-08,-40.25677954656679,3.0108439863509187e-06,-21.31486062224983,0.00011516710325850228,-3.522164727158292,0.0009694019823437334,12.986489952742467
-2.8352873698647882,47.67270861595006,7.521160916175519e-08,-40.25677954656679,3.2519979415826075e-06,-21.31486062224983,0.00012052648607757064,-3.522164727158292,0.0010348528736024956,12.986489952742467
-2.827433388230814,47.552825814757675,8.039064212017754e-08,-40.25677954656679,3.509626250015962e-06,-21.31486062224983,0.00012620242375172792,-3.522164727158292,0.0011035846933368824,12.986489952742467
-2.8195794065968394,47.43000973127523,8.596712049074609e-08,-40.25677954656679,3.784812142369932e-06,-21.31486062224983,0.00013221236738287582,-3.522164727158292,0.001175740311684158,12.986489952742467
-2.811725424962865,47.30426794137726,9.197092584844311e-08,-40.25677954656679,4.0787101471294665e-06,-21.31486062224983,0.00013857474352292889,-3.522164727158292,0.0012514690086126929,12.986489952742467
-2.8038714433288905,47.17560820140968,9.843417769604891e-08,-40.25677954656679,4.392550549708707e-06,-21.31486062224983,0.00014530900352081446,-3.522164727158292,0.001330926699566223,12.986489952742467
-2.796017461694916,47.04403844771127,1.0539139639002449e-07,-40.25677954656679,4.727644126079094e-06,-21.31486062224983,0.00015243567530396037,-3.522164727158292,0.001414276168301007,12.986489952742467
-2.788163480060941,46.9095667961242,1.1287967775800308e-07,-40.25677954656679,5.0853871664789724e-06,-21.31486062224983,0.00015997641769364035,-3.522164727158292,0.0015016873069643995,12.986489952742467
-2.7803094984269667,46.77220154149337,1.2093888021425324e-07,-40.25677954656679,5.4672668056946745e-06,-21.31486062224983,0.00016795407735675108,-3.522164727158292,0.0015933373634533974,12.986489952742467
-2.7724555167929923,46.6319511571547,1.2961182523289754e-07,-40.25677954656679,5.874866677270576e-06,-21.31486062224983,0.0001763927485000981,-3.522164727158292,0.0016894111960828657,12.986489952742467
-2.764601535159018,46.48882429441257,1.3894451209608083e-07,-40.25677954656679,6.309872909945771e-06,-21.31486062224983,0.00018531783541680719,-3.522164727158292,0.0017901015355820356,12.986489952742467
-2.7567475535250434,46.34282978200604,1.4898634789553347e-07,-40.25677954656679,6.774080485567126e-06,-21.31486062224983,0.0001947561179979797,-3.522164727158292,0.0018956092544265017,12.986489952742467
-2.748893571891069,46.19397662556434,1.5979039383110513e-07,-40.25677954656679,7.269399978782155e-06,-21.31486062224983,0.00020473582032596823,-3.522164727158292,0.0020061436434995043,12.986489952742467
-2.7410395902570945,46.04227400705131,1.7141362891676806e-07,-40.25677954656679,7.797864699819627e-06,-21.31486062224983,0.00021528668246967208,-3.522164727158292,0.0021219226960634504,12.986489952742467
-2.73318560862312,45.887731284199056,1.8391723228002723e-07,-40.25677954656679,8.361638262826524e-06,-21.31486062224983,0.00022644003560529663,-3.522164727158292,0.0022431733990066803,12.986489952742467
-2.7253316269891457,45.73035798993068,1.9736688531773463e-07,-40.25677954656679,8.963022603360422e-06,-21.31486062224983,0.0002382288805896559,-3.522164727158292,0.0023701320313142295,12.986489952742467
-2.717477645355171,45.570163831772255,2.1183309505155182e-07,-40.25677954656679,9.604466469847087e-06,-21.31486062224983,0.0002506879701168597,-3.522164727158292,0.0025030444696946606,12.986489952742467
-2.7096236637211963,45.407158691254054,2.2739154011685608e-07,-40.25677954656679,1.0288574415075001e-05,-21.31486062224983,0.0002638538945923026,-3.522164727158292,0.0026421665012751586,12.986489952742467
-2.701769682087222,45.24135262330097,2.441234409093701e-07,-40.25677954656679,1.1018116315123046e-05,-21.31486062224983,0.00027776517186154834,-3.522164727158292,0.0027877641432574184,12.986489952742467
-2.6939157004532475,45.07275585561228,2.621159555134054e-07,-40.25677954656679,1.1796037444471369e-05,-21.31486062224983,0.0002924623409349922,-3.522164727158292,0.0029401139694050526,12.986489952742467
-2.686061718819273,44.901378788030776,2.814626031380558e-07,-40.25677954656679,1.2625469137484923e-05,-21.31486062224983,0.00030798805985260473,-3.522164727158292,0.003099503443210453,12.986489952742467
-2.6782077371852986,44.72723199190125,3.0226371690284817e-07,-40.25677954656679,1.350974006795233e-05,-21.31486062224983,0.00032438720783593947,-3.522164727158292,0.0032662312575634897,12.986489952742467
-2.670353755551324,44.55032620941839,3.246269279242234e-07,-40.25677954656679,1.4452388179887609e-05,-21.31486062224983,0.00034170699187830307,-3.522164727158292,0.0034406076807196474,12.986489952742467
-2.6624997739173497,44.37067235296416,3.486676827858273e-07,-40.25677954656679,1.5457173304443446e-05,-21.31486062224983,0.00035999705792657367,-3.522164727158292,0.00362295490833617,12.986489952742467
-2.6546457922833753,44.18828150443467,3.745097966032872e-07,-40.25677954656679,1.6528090499441554e-05,-21.31486062224983,0.000379309606810976,-3.522164727158292,0.0038136074213155915,12.986489952742467
-2.646791810649401,44.0031649145566,4.022860440338634e-07,-40.25677954656679,1.7669384149764424e-05,-21.31486062224983,0.000399699515082442,-3.522164727158292,0.0040129123491655675,12.986489952742467
-2.6389378290154264,43.81533400219318,4.3213879072893835e-07,-40.25677954656679,1.8885562868676676e-05,-21.31486062224983,0.0004212244609191246,-3.522164727158292,0.004221229838549732,12.986489952742467
-2.6310838473814515,43.62480035363985,4.6422066788503486e-07,-40.25677954656679,2.018141524201049e-05,-21.31486062224983,0.0004439450552665136,-3.522164727158292,0.00443893342667064,12.986489952742467
-2.623229865747477,43.43157572190955,4.986952927135458e-07,-40.25677954656679,2.1562026459091785e-05,-21.31486062224983,0.0004679249783774073,-3.522164727158292,0.004666410419088512,12.986489952742467
-2.6153758841135026,43.23567202600775,5.35738037821306e-07,-40.25677954656679,2.3032795876328348e-05,-21.31486062224983,0.00049323112192041,-3.522164727158292,0.0049040622715414844,12.986489952742467
-2.607521902479528,43.037101350197176,5.755368526851359e-07,-40.25677954656679,2.4599455561431487e-05,-21.31486062224983,0.0005199337368268354,-3.522164727158292,0.0051523049752922,12.986489952742467
-2.5996679208455538,42.835875943252475,6.182931405928493e-07,-40.25677954656679,2.626808986846384e-05,-21.31486062224983,0.0005481065870477635,-3.522164727158292,0.005411569445483631,12.986489952742467
-2.5918139392115793,42.63200821770461,6.642226946333455e-07,-40.25677954656679,2.804515609608298e-05,-21.31486062224983,0.0005778271093938322,-3.522164727158292,0.005682301911942362,12.986489952742467
-2.583959957577605,42.42551074907518,7.135566965357054e-07,-40.25677954656679,2.9937506283742975e-05,-21.31486062224983,0.0006091765796311444,-3.522164727158292,0.005964964311821158,12.986489952742467
-2.5761059759436304,42.216396275100756,7.665427823883437e-07,-40.25677954656679,3.195241020293226e-05,-21.31486062224983,0.0006422402850071562,-3.522164727158292,0.006260034683424423,12.986489952742467
-2.568251994309656,42.0046776949471,8.23446179510845e-07,-40.25677954656679,3.4097579603069453e-05,-21.31486062224983,0.000677107703380456,-3.522164727158292,0.006568007560509598,12.986489952742467
-2.560398012675681,41.7903680684135,8.845509190098611e-07,-40.25677954656679,3.6381193774179966e-05,-21.31486062224983,0.0007138726891277236,-3.522164727158292,0.006889394366304691,12.986489952742467
-2.552544031041707,41.573480615127266,9.501611288221429e-07,-40.25677954656679,3.881192649113359e-05,-21.31486062224983,0.0007526336660002365,-3.522164727158292,0.007224723806427973,12.986489952742467
-2.5446900494077322,41.354028713728084,1.0206024123305306e-06,-40.25677954656679,4.139897440691649e-05,-21.31486062224983,0.0007934938271011918,-3.522164727158292,0.007574542259839068,12.986489952742467
-2.536836067773758,41.13202590104299,1.0962233179445997e-06,-40.25677954656679,4.41520869652172e-05,-21.31486062224983,0.0008365613421526186,-3.522164727158292,0.007939414166891107,12.986489952742467
-2.5289820861397834,40.90748587125116,1.177396905350825e-06,-40.25677954656679,4.7081597905440055e-05,-21.31486062224983,0.0008819495722185419,-3.522164727158292,0.008319922413494293,12.986489952742467
-2.521128104505809,40.68042247503934,1.264522414476154e-06,-40.25677954656679,5.0198458436233964e-05,-21.31486062224983,0.0009297772920475693,-3.522164727158292,0.00871666871033699,12.986489952742467
-2.5132741228718345,40.450849718747364,1.3580270435600928e-06,-40.25677954656679,5.351427215664188e-05,-21.31486062224983,0.0009801689201942641,-3.522164727158292,0.009130273966045753,12.986489952742467
-2.50542014123786,40.218781763504225,1.4583678431005932e-06,-40.25677954656679,5.7041331807031915e-05,-21.31486062224983,0.0010332547570739991,-3.522164727158292,0.009561378653100137,12.986489952742467
-2.4975661596038856,39.98423292435453,1.5660337328314868e-06,-40.25677954656679,6.079265793520863e-05,-21.31486062224983,0.0010891712311008228,-3.522164727158292,0.010010643165247362,12.986489952742467
-2.4897121779699107,39.74721766937549,1.681547649300003e-06,-40.25677954656679,6.478203956628934e-05,-21.31486062224983,0.0011480611530514104,-3.522164727158292,0.01047874816509283,12.986489952742467
-2.4818581963359367,39.50775061878452,1.8054688320470136e-06,-40.25677954656679,6.902407696825264e-05,-21.31486062224983,0.00121007397879101,-3.522164727158292,0.010966394920469611,12.986489952742467
-2.474004214701962,39.26584654403724,1.9383952568455567e-06,-40.25677954656679,7.353422660848488e-05,-21.31486062224983,0.0012753660804898162,-3.522164727158292,0.011474305628115947,12.986489952742467
-2.4661502330679874,39.02152036691648,2.0809662249311217e-06,-40.25677954656679,7.832884840004989e-05,-21.31486062224983,0.001344101026448495,-3.522164727158292,0.012003223723113179,12.986489952742467
-2.458296251434013,38.774787158611716,2.2338651176619955e-06,-40.25677954656679,8.342525533991162e-05,-21.31486062224983,0.0014164498696422098,-3.522164727158292,0.012553914172461378,12.986489952742467
-2.4504422698000385,38.52566213878946,2.397822326572702e-06,-40.25677954656679,8.88417656449628e-05,-21.31486062224983,0.0014925914450810561,-3.522164727158292,0.013127163751089257,12.986489952742467
-2.442588288166064,38.274160674654404,2.57361836933914e-06,-40.25677954656679,9.459775749524015e-05,-21.31486062224983,0.00157271267607248,-3.522164727158292,0.013723781298515774,12.986489952742467
-2.4347343065320897,38.02029828000154,2.76208720275285e-06,-40.25677954656679,0.00010071372649743313,-21.31486062224983,0.0016570088894580963,-3.522164727158292,0.014344597954300915,12.986489952742467
-2.4268803248981152,37.764090614259175,2.964119744414883e-06,-40.25677954656679,0.00010721134598545918,-21.31486062224983,0.0017456841398824218,-3.522164727158292,0.014990467370339157,12.986489952742467
-2.419026343264141,37.50555348152298,3.1806676154911925e-06,-40.25677954656679,0.00011411353027865649,-21.31486062224983,0.0018389515431349863,-3.522164727158292,0.01566226589796878,12.986489952742467
-2.4111723616301663,37.24470282958111,3.4127471175513313e-06,-40.25677954656679,0.00012144450102183589,-21.31486062224983,0.0019370336185897201,-3.522164727158292,0.016360892747785453,12.986489952742467
-2.4033183799961915,36.98155474893047,3.6614434572039263e-06,-40.25677954656679,0.00012922985673530972,-21.31486062224983,0.002040162640746788,-3.522164727158292,0.017087270119965605,12.986489952742467
-2.395464398362217,36.71612547178427,3.9279152329796354e-06,-40.25677954656679,0.00013749664570673203,-21.31486062224983,0.0021485809998617084,-3.522164727158292,0.01784234330282139,12.986489952742467
-2.3876104167282426,36.44843137107057,4.213399199683739e-06,-40.25677954656679,0.00014627344236043638,-21.31486062224983,0.002262541571624134,-3.522164727158292,0.01862708073722633,12.986489952742467
